equity
10000
10000
10000
10000
10000
10000
10000
10000
10000
10000
10000
10000
10000
10000
10000
10000
10000
10000
10000
10000
10000
10000
10002.90046368953
10016.36596368953
10012.80456368953
10018.892663689528
10027.17446368953
10030.39276368953
10026.201563689528
10025.21626368953
10020.19206368953
10026.011263689528
10024.16106368953
10008.63276368953
10007.61971168354
9997.138665954268
9997.78146595427
9989.911465954268
9988.898550555858
9988.898550555858
9988.898550555858
9988.898550555858
9988.898550555858
9988.898550555858
9988.898550555858
9988.898550555858
9988.898550555858
9988.898550555858
9988.898550555858
9988.898550555858
9988.898550555858
9988.898550555858
9988.898550555858
9988.898550555858
9988.898550555858
9988.898550555858
9988.898550555858
9988.898550555858
9988.898550555858
9988.898550555858
9988.898550555858
9988.898550555858
9988.898550555858
9988.898550555858
9988.898550555858
9988.898550555858
9983.987173168078
9976.068073168077
9975.071280763808
9975.071280763808
9975.071280763808
9975.071280763808
9975.071280763808
9975.071280763808
9975.071280763808
9981.441057556558
9993.432257556558
9996.489057556559
9991.544457556558
9987.457757556558
10006.970657556558
10012.006257556557
10008.906857556558
9999.244557556558
10005.870457556557
10005.425457556557
10006.897357556558
9994.696157556558
9995.584357556558
9993.076757556559
9996.026357556559
9993.764357556558
9985.369657556557
9984.329263246458
9984.329263246458
9984.329263246458
9984.329263246458
9984.329263246458
9984.329263246458
9984.329263246458
9984.329263246458
9984.329263246458
9984.329263246458
9984.329263246458
9984.329263246458
9984.329263246458
9984.329263246458
9984.329263246458
9984.329263246458
9984.329263246458
9984.329263246458
9984.329263246458
9984.329263246458
9984.329263246458
9984.329263246458
9984.329263246458
9984.329263246458
9984.329263246458
9984.329263246458
9984.329263246458
9984.329263246458
9984.329263246458
9984.329263246458
9984.329263246458
9984.329263246458
9984.329263246458
9984.329263246458
9984.329263246458
9984.329263246458
9984.329263246458
9984.329263246458
9984.329263246458
9984.329263246458
9984.329263246458
9984.329263246458
9984.329263246458
9984.329263246458
9984.329263246458
9984.329263246458
9984.329263246458
9984.329263246458
9984.329263246458
9984.329263246458
9984.329263246458
9984.329263246458
9984.329263246458
9984.329263246458
9984.329263246458
9984.329263246458
9984.329263246458
9984.329263246458
9984.329263246458
9984.329263246458
9984.329263246458
9984.329263246458
9984.329263246458
9984.329263246458
9984.329263246458
9984.329263246458
9984.329263246458
9984.329263246458
9984.329263246458
9984.329263246458
9984.329263246458
9977.431164122907
9976.542864122908
9975.593164122907
9963.088664122908
9962.120217791487
9962.120217791487
9962.120217791487
9962.120217791487
9962.120217791487
9962.120217791487
9962.120217791487
9962.120217791487
9962.120217791487
9962.120217791487
9962.120217791487
9962.120217791487
9962.120217791487
9962.120217791487
9962.120217791487
9962.120217791487
9962.120217791487
9962.120217791487
9962.120217791487
9962.120217791487
9962.120217791487
9962.120217791487
9962.120217791487
9962.120217791487
9962.120217791487
9962.120217791487
9962.120217791487
9962.120217791487
9962.120217791487
9962.120217791487
9962.120217791487
9962.120217791487
9962.120217791487
9962.120217791487
9962.120217791487
9962.120217791487
9962.120217791487
9962.120217791487
9962.120217791487
9962.120217791487
9962.120217791487
9962.120217791487
9962.120217791487
9962.120217791487
9962.120217791487
9962.120217791487
9962.120217791487
9962.120217791487
9962.120217791487
9962.120217791487
9962.120217791487
9962.120217791487
9962.120217791487
9962.120217791487
9962.120217791487
9962.120217791487
9962.120217791487
9962.120217791487
9962.120217791487
9962.120217791487
9962.120217791487
9962.120217791487
9962.120217791487
9962.120217791487
9962.120217791487
9962.120217791487
9962.120217791487
9962.120217791487
9962.120217791487
9962.120217791487
9962.120217791487
9962.120217791487
9962.120217791487
9962.120217791487
9962.120217791487
9962.120217791487
9962.120217791487
9962.120217791487
9962.120217791487
9962.120217791487
9962.120217791487
9962.120217791487
9962.120217791487
9962.120217791487
9962.120217791487
9962.120217791487
9962.120217791487
9962.120217791487
9962.120217791487
9962.120217791487
9962.120217791487
9962.120217791487
9962.120217791487
9962.120217791487
9962.120217791487
9962.120217791487
9962.120217791487
9962.120217791487
9954.184380735436
9955.084080735436
9954.619080735436
9955.901780735438
9964.558880735436
9959.390680735436
9947.333580735436
9939.337380735436
9938.586090410767
9938.586090410767
9938.586090410767
9938.586090410767
9938.586090410767
9938.586090410767
9938.586090410767
9938.586090410767
9938.586090410767
9938.586090410767
9938.586090410767
9938.586090410767
9938.586090410767
9938.586090410767
9938.586090410767
9938.586090410767
9938.586090410767
9938.586090410767
9938.586090410767
9938.586090410767
9938.586090410767
9938.586090410767
9938.586090410767
9938.586090410767
9938.586090410767
9938.586090410767
9938.586090410767
9938.586090410767
9938.586090410767
9938.586090410767
9938.586090410767
9938.586090410767
9938.586090410767
9938.586090410767
9938.586090410767
9938.586090410767
9938.586090410767
9938.586090410767
9938.586090410767
9938.586090410767
9938.586090410767
9938.586090410767
9938.586090410767
9938.586090410767
9938.586090410767
9938.586090410767
9938.586090410767
9938.586090410767
9938.586090410767
9938.586090410767
9938.586090410767
9938.586090410767
9938.586090410767
9938.586090410767
9938.586090410767
9938.586090410767
9938.586090410767
9938.586090410767
9938.586090410767
9954.181642922576
9943.747742922576
9946.024942922577
9942.153542922577
9944.267042922576
9937.728042922576
9939.711142922577
9938.689542922577
9939.789242922576
9940.638942922576
9925.161942922576
9924.434579932496
9924.434579932496
9924.434579932496
9924.434579932496
9924.434579932496
9924.434579932496
9924.434579932496
9924.434579932496
9924.434579932496
9924.434579932496
9924.434579932496
9924.434579932496
9924.434579932496
9924.434579932496
9924.434579932496
9924.434579932496
9924.434579932496
9924.434579932496
9924.434579932496
9922.135576511197
9920.786776511197
9916.172576511197
9914.175376511197
9902.814476511197
9909.772976511196
9916.765676511197
9915.713676511197
9909.673876511197
9927.373476511197
9943.443176511197
9966.308776511196
9968.525376511197
9959.134176511197
9957.267776511197
9953.001776511197
9961.592176511196
9949.036576511196
9941.586276511196
9941.290876511197
9943.310376511197
9943.106176511197
9934.722776511197
9933.950358977356
9933.950358977356
9933.950358977356
9933.950358977356
9933.950358977356
9933.950358977356
9933.950358977356
9933.950358977356
9933.950358977356
9933.950358977356
9933.950358977356
9933.950358977356
9933.950358977356
9933.950358977356
9933.950358977356
9933.950358977356
9933.950358977356
9933.950358977356
9933.950358977356
9933.950358977356
9933.950358977356
9933.950358977356
9943.000729623725
9944.843229623726
9952.315929623725
9939.366529623725
9938.373929623725
9934.460929623725
9935.472829623726
9930.596229623725
9941.198629623725
9945.281329623725
9940.696129623726
9933.318129623725
9937.068729623725
9943.123629623726
9942.070329623726
9943.107129623726
9944.022829623726
9952.970629623725
9955.088629623726
9961.133429623726
9957.212829623726
9950.701129623725
9948.254429623725
9949.760229623726
9945.020929623726
9946.444029623726
9944.839229623725
9944.062822422615
9944.062822422615
9944.062822422615
9944.062822422615
9944.062822422615
9944.062822422615
9944.062822422615
9944.062822422615
9950.860332241946
9949.685532241945
9950.626532241946
9947.848232241946
9954.671732241946
9963.876832241946
9959.814832241946
9957.725732241946
9955.489932241946
9954.285132241945
9960.214932241946
9954.194632241946
9959.602032241946
9953.968832241946
9944.653632241945
9943.851256841795
9943.851256841795
9943.851256841795
9943.851256841795
9943.851256841795
9943.851256841795
9943.851256841795
9943.851256841795
9943.851256841795
9943.851256841795
9943.851256841795
9943.851256841795
9943.851256841795
9943.851256841795
9943.851256841795
9943.851256841795
9943.851256841795
9943.851256841795
9943.851256841795
9943.851256841795
9943.851256841795
9943.851256841795
9943.851256841795
9943.851256841795
9943.851256841795
9943.851256841795
9943.851256841795
9943.851256841795
9943.851256841795
9943.851256841795
9943.851256841795
9943.851256841795
9943.851256841795
9943.851256841795
9943.851256841795
9941.679622394235
9928.851422394235
9923.901222394235
9923.138210985215
9923.138210985215
9923.138210985215
9923.138210985215
9913.885500338945
9914.369300338945
9918.972700338945
9914.708900338945
9906.466900338944
9905.696002536935
9905.696002536935
9905.696002536935
9905.696002536935
9905.696002536935
9905.696002536935
9905.696002536935
9905.696002536935
9905.696002536935
9905.696002536935
9905.696002536935
9905.696002536935
9905.696002536935
9905.696002536935
9905.696002536935
9905.696002536935
9905.696002536935
9905.696002536935
9905.696002536935
9905.696002536935
9905.696002536935
9905.696002536935
9905.696002536935
9905.696002536935
9905.696002536935
9905.696002536935
9905.696002536935
9905.696002536935
9905.696002536935
9905.696002536935
9905.696002536935
9905.696002536935
9905.696002536935
9905.696002536935
9905.696002536935
9905.696002536935
9905.143864748836
9907.159364748835
9899.777864748836
9899.250764748835
9883.856164748835
9883.123854848514
9883.123854848514
9883.123854848514
9883.123854848514
9883.123854848514
9883.123854848514
9883.123854848514
9883.123854848514
9883.123854848514
9883.123854848514
9883.123854848514
9883.123854848514
9883.123854848514
9883.123854848514
9883.123854848514
9883.123854848514
9883.123854848514
9883.123854848514
9883.123854848514
9883.123854848514
9883.123854848514
9883.123854848514
9883.123854848514
9883.233639096994
9883.175539096994
9888.201039096994
9891.615539096994
9889.329639096994
9880.529239096993
9879.793639096994
9878.201439096994
9875.489239096994
9873.744039096993
9882.096439096993
9911.289239096994
9905.011339096995
9908.424839096993
9908.787339096994
9905.084639096995
9905.304939096994
9902.719939096994
9902.002239096993
9901.854839096994
9903.546739096993
9913.468839096993
9912.929239096993
9909.926839096994
9910.724539096995
9906.916139096993
9913.290039096993
9916.540439096994
9924.345139096993
9921.614339096994
9920.716239096993
9919.524139096993
9921.154639096994
9920.618439096994
9928.893539096995
9922.575639096995
9908.066839096993
9907.279291338753
9907.279291338753
9907.279291338753
9907.279291338753
9907.279291338753
9907.279291338753
9907.279291338753
9907.279291338753
9907.279291338753
9907.279291338753
9917.493658304233
9917.756558304232
9918.829558304233
9917.033258304233
9926.405558304232
9915.588158304232
9914.748658304232
9916.762858304231
9910.715658304232
9915.299158304233
9911.767158304232
9923.362658304231
9921.455258304231
9922.178358304232
9920.359358304233
9919.009458304232
9920.276358304232
9926.778658304233
9924.786958304232
9919.432558304232
9924.112358304232
9929.184158304233
9951.127458304232
9947.311958304232
9944.027658304232
9943.418158304232
9943.353458304233
9933.727658304233
9934.979158304232
9929.827558304232
9930.277558304233
9928.511058304233
9927.680431972582
9927.680431972582
9927.680431972582
9927.680431972582
9927.680431972582
9927.680431972582
9927.680431972582
9927.680431972582
9927.680431972582
9927.680431972582
9927.680431972582
9927.680431972582
9927.680431972582
9927.680431972582
9927.680431972582
9927.680431972582
9927.680431972582
9927.680431972582
9931.618698149281
9934.514798149281
9944.31059814928
9940.01619814928
9933.42149814928
9929.06219814928
9932.094498149281
9928.58469814928
9935.374098149281
9928.772998149281
9934.12469814928
9929.00619814928
9928.19449814928
9933.93979814928
9932.02409814928
9927.93559814928
9927.08170068338
9927.08170068338
9927.08170068338
9927.08170068338
9927.08170068338
9927.08170068338
9927.08170068338
9927.08170068338
9927.08170068338
9927.08170068338
9927.08170068338
9927.08170068338
9927.08170068338
9927.08170068338
9911.18234391632
9910.32877587047
9910.32877587047
9910.32877587047
9910.32877587047
9910.32877587047
9910.32877587047
9910.32877587047
9910.32877587047
9910.32877587047
9910.32877587047
9910.32877587047
9910.32877587047
9910.32877587047
9910.32877587047
9910.32877587047
9910.32877587047
9910.32877587047
9910.32877587047
9910.32877587047
9910.32877587047
9910.32877587047
9910.32877587047
9910.32877587047
9910.32877587047
9910.32877587047
9910.32877587047
9908.696825416651
9907.42722541665
9909.24072541665
9907.348325416651
9906.627625416651
9910.048125416652
9909.998525416651
9912.02772541665
9907.06632541665
9908.700425416651
9911.730025416651
9911.77722541665
9912.837725416652
9910.769325416652
9928.28752541665
9922.09692541665
9913.02792541665
9925.376925416651
9925.65072541665
9923.727725416651
9934.01412541665
9933.634625416651
9935.327725416651
9940.420325416651
9941.167025416651
9934.233325416651
9940.94882541665
9938.85982541665
9950.420825416651
9942.145625416651
9939.727725416651
9939.54392541665
9933.591925416651
9940.32782541665
9933.87642541665
9932.986882721521
9932.986882721521
9932.986882721521
9932.986882721521
9932.986882721521
9932.986882721521
9932.986882721521
9932.986882721521
9932.986882721521
9932.986882721521
9932.986882721521
9932.986882721521
9932.986882721521
9932.986882721521
9932.986882721521
9932.986882721521
9932.986882721521
9932.986882721521
9932.986882721521
9932.31008658109
9940.11748658109
9925.324886581091
9925.48678658109
9929.986886581091
9932.43348658109
9937.61798658109
9935.387086581091
9928.58688658109
9926.50808658109
9925.6187942232
9925.6187942232
9925.6187942232
9925.6187942232
9925.6187942232
9925.6187942232
9925.6187942232
9925.6187942232
9925.6187942232
9925.6187942232
9925.6187942232
9925.6187942232
9925.6187942232
9925.6187942232
9925.6187942232
9925.6187942232
9925.6187942232
9925.6187942232
9925.6187942232
9925.6187942232
9925.6187942232
9925.6187942232
9925.6187942232
9925.6187942232
9925.6187942232
9925.6187942232
9925.6187942232
9925.6187942232
9925.6187942232
9925.6187942232
9925.6187942232
9925.6187942232
9925.6187942232
9925.6187942232
9925.6187942232
9925.6187942232
9925.6187942232
9925.6187942232
9925.6187942232
9925.6187942232
9925.6187942232
9925.6187942232
9925.6187942232
9925.6187942232
9925.6187942232
9925.6187942232
9925.6187942232
9925.6187942232
9925.6187942232
9925.6187942232
9925.6187942232
9925.6187942232
9925.6187942232
9925.6187942232
9925.6187942232
9925.6187942232
9925.6187942232
9925.6187942232
9925.6187942232
9925.6187942232
9925.6187942232
9925.6187942232
9925.6187942232
9925.6187942232
9925.6187942232
9925.6187942232
9925.6187942232
9925.6187942232
9925.6187942232
9925.6187942232
9925.6187942232
9925.6187942232
9925.6187942232
9925.6187942232
9925.6187942232
9925.6187942232
9925.6187942232
9925.6187942232
9925.6187942232
9925.6187942232
9925.6187942232
9925.6187942232
9925.6187942232
9925.6187942232
9925.6187942232
9925.6187942232
9925.6187942232
9925.6187942232
9925.6187942232
9925.6187942232
9925.6187942232
9925.6187942232
9925.6187942232
9925.6187942232
9925.6187942232
9925.6187942232
9925.6187942232
9925.6187942232
9925.6187942232
9925.6187942232
9925.6187942232
9925.6187942232
9925.6187942232
9925.6187942232
9925.6187942232
9925.6187942232
9925.6187942232
9925.6187942232
9925.6187942232
9925.6187942232
9925.6187942232
9925.6187942232
9925.6187942232
9925.6187942232
9925.6187942232
9925.6187942232
9925.6187942232
9925.6187942232
9925.6187942232
9925.6187942232
9925.6187942232
9925.6187942232
9925.6187942232
9925.6187942232
9925.6187942232
9925.6187942232
9925.6187942232
9925.6187942232
9925.6187942232
9925.6187942232
9925.6187942232
9925.6187942232
9925.6187942232
9925.6187942232
9925.6187942232
9925.6187942232
9925.6187942232
9925.6187942232
9925.6187942232
9925.6187942232
9925.6187942232
9925.6187942232
9925.6187942232
