equity
10000
10000
10000
10000
10000
10000
10000
10000
10000
10000
10000
10000
10000
10000
10000
10000
10000
10000
10000
10000
10000
10000
10000.02412465589
10000.011724655891
10000.01492465589
10000.01872465589
10000.03982465589
10000.036424655891
10000.04112465589
10000.03312465589
10000.05242465589
10000.07332465589
10000.032824655891
10000.06822465589
10000.05322465589
10000.05142465589
10000.03672465589
10000.01442465589
10000.01293209159
10000.01293209159
10000.01293209159
10000.01293209159
10000.01293209159
10000.01293209159
10000.01293209159
10000.01293209159
10000.01293209159
10000.01293209159
10000.01293209159
10000.01293209159
10000.01293209159
10000.01293209159
10000.01293209159
10000.01293209159
10000.01293209159
10000.01293209159
10000.01293209159
10000.01293209159
10000.01293209159
10000.01293209159
10000.01293209159
10000.01293209159
10000.01293209159
10000.01293209159
10000.01293209159
10000.00006411906
9999.98616411906
10000.012064119059
9999.99596411906
9999.97826411906
9999.97356411906
9999.98576411906
10000.004364119059
10000.02116411906
10000.02836411906
10000.04096411906
10000.04866411906
10000.03476411906
10000.02376411906
10000.05676411906
10000.05386411906
10000.05306411906
10000.02096411906
10000.03606411906
10000.034664119059
10000.02086411906
10000.00136411906
9999.99980743059
9999.99980743059
9999.99980743059
9999.99980743059
9999.99980743059
9999.99980743059
9999.99980743059
9999.99980743059
9999.99980743059
9999.99980743059
9999.99980743059
9999.99980743059
9999.99980743059
9999.99980743059
9999.99980743059
9999.99980743059
9999.99980743059
9999.99980743059
9999.99980743059
9999.99980743059
9999.99980743059
9999.99980743059
9999.99980743059
9999.99980743059
9999.99980743059
9999.99980743059
9999.99980743059
9999.99980743059
9999.99980743059
9999.99980743059
9999.99980743059
9999.99980743059
9999.99980743059
9999.99980743059
9999.99980743059
9999.99980743059
9999.99980743059
9999.99980743059
9999.99980743059
9999.99980743059
9999.99980743059
9999.99980743059
9999.99980743059
9999.99980743059
9999.99980743059
9999.99980743059
9999.99980743059
9999.99980743059
9999.99980743059
9999.99980743059
9999.99980743059
9999.99980743059
9999.99980743059
9999.99980743059
9999.99980743059
9999.99980743059
9999.99980743059
9999.99980743059
9999.99980743059
9999.99980743059
9999.99980743059
9999.99980743059
9999.99980743059
9999.99980743059
9999.99980743059
9999.99980743059
9999.99980743059
9999.99980743059
9999.99980743059
9999.99980743059
9999.99980743059
9999.99980743059
9999.99980743059
9999.99980743059
9999.99980743059
9999.99980743059
9999.977497652439
9999.976797652438
9999.970297652439
9999.947397652439
9999.94604422549
9999.94604422549
9999.94604422549
9999.94604422549
9999.94604422549
9999.94604422549
9999.94604422549
9999.94604422549
9999.94604422549
9999.94604422549
9999.94604422549
9999.94604422549
9999.94604422549
9999.94604422549
9999.94604422549
9999.94604422549
9999.94604422549
9999.94604422549
9999.94604422549
9999.94604422549
9999.94604422549
9999.94604422549
9999.94604422549
9999.94604422549
9999.94604422549
9999.94604422549
9999.94604422549
9999.94604422549
9999.94604422549
9999.94604422549
9999.94604422549
9999.94604422549
9999.94604422549
9999.94604422549
9999.94604422549
9999.94604422549
9999.94604422549
9999.94604422549
9999.94604422549
9999.94604422549
9999.94604422549
9999.94604422549
9999.94604422549
9999.94604422549
9999.94604422549
9999.94604422549
9999.94604422549
9999.94604422549
9999.94604422549
9999.94604422549
9999.94604422549
9999.94604422549
9999.94604422549
9999.94604422549
9999.94604422549
9999.94604422549
9999.94604422549
9999.94604422549
9999.94604422549
9999.94604422549
9999.94604422549
9999.94604422549
9999.94604422549
9999.94604422549
9999.94604422549
9999.94604422549
9999.94604422549
9999.94604422549
9999.94604422549
9999.94604422549
9999.94604422549
9999.94604422549
9999.94604422549
9999.94604422549
9999.94604422549
9999.94604422549
9999.94604422549
9999.94604422549
9999.94604422549
9999.94604422549
9999.94604422549
9999.94604422549
9999.94604422549
9999.94604422549
9999.94604422549
9999.94604422549
9999.94604422549
9999.94604422549
9999.94604422549
9999.94604422549
9999.94604422549
9999.94604422549
9999.94604422549
9999.94604422549
9999.941913100849
9999.94931310085
9999.95061310085
9999.97161310085
9999.97291310085
9999.980513100849
9999.97931310085
9999.98471310085
10000.00601310085
9999.99041310085
9999.97271310085
9999.95211310085
9999.96021310085
9999.95001310085
9999.94941310085
9999.94847741592
9999.94847741592
9999.94847741592
9999.94847741592
9999.94847741592
9999.94847741592
9999.94847741592
9999.94847741592
9999.94847741592
9999.94847741592
9999.94847741592
9999.94847741592
9999.94847741592
9999.94847741592
9999.94847741592
9999.94847741592
9999.94847741592
9999.94847741592
9999.94847741592
9999.94847741592
9999.94847741592
9999.94847741592
9999.94847741592
9999.94847741592
9999.94847741592
9999.94847741592
9999.94847741592
9999.94847741592
9999.94847741592
9999.94847741592
9999.94847741592
9999.94847741592
9999.943924949339
9999.933624949339
9999.93242494934
9999.93412494934
9999.93412494934
9999.916924949339
9999.91600631286
9999.91600631286
9999.91600631286
9999.91600631286
9999.91600631286
9999.91600631286
9999.91600631286
9999.91600631286
9999.91600631286
9999.91600631286
9999.91600631286
9999.91600631286
9999.91600631286
9999.91600631286
9999.91600631286
9999.91600631286
9999.91600631286
9999.94108904948
9999.97538904948
9999.96158904948
9999.96068904948
9999.95368904948
9999.94938904948
9999.946889049479
9999.94608904948
9999.94018904948
9999.95758904948
9999.95438904948
9999.91728904948
9999.90828904948
9999.90737943218
9999.90737943218
9999.90737943218
9999.90737943218
9999.90737943218
9999.90737943218
9999.90737943218
9999.90737943218
9999.90737943218
9999.90737943218
9999.90737943218
9999.90737943218
9999.90737943218
9999.90737943218
9999.90737943218
9999.90737943218
9999.90737943218
9999.90737943218
9999.895102653389
9999.88470265339
9999.88140265339
9999.87420265339
9999.86050265339
9999.859576537589
9999.859576537589
9999.859576537589
9999.859576537589
9999.859576537589
9999.859576537589
9999.859576537589
9999.861454544689
9999.83815454469
9999.82975454469
9999.831154544689
9999.84765454469
9999.825254544689
9999.81685454469
9999.81715454469
9999.813654544689
9999.81655454469
9999.80225454469
9999.80129466196
9999.80129466196
9999.80129466196
9999.80129466196
9999.80129466196
9999.80129466196
9999.80129466196
9999.80129466196
9999.80129466196
9999.80129466196
9999.80129466196
9999.80129466196
9999.80129466196
9999.80129466196
9999.80129466196
9999.80129466196
9999.80129466196
9999.80129466196
9999.80129466196
9999.80129466196
9999.80129466196
9999.80129466196
9999.80129466196
9999.801340875261
9999.81664087526
9999.79354087526
9999.792340875261
9999.78984087526
9999.78784087526
9999.778940875261
9999.78734087526
9999.80604087526
9999.79894087526
9999.783540875262
9999.782605740282
9999.782605740282
9999.782605740282
9999.782605740282
9999.782605740282
9999.782605740282
9999.771319060592
9999.787919060593
9999.779519060592
9999.773619060592
9999.766319060593
9999.768819060591
9999.757919060592
9999.754219060593
9999.753262697543
9999.753262697543
9999.753262697543
9999.753262697543
9999.753262697543
9999.753262697543
9999.753262697543
9999.753262697543
9999.753262697543
9999.760647085222
9999.764447085223
9999.766547085223
9999.760947085222
9999.781247085222
9999.791147085223
9999.769747085222
9999.773447085223
9999.765747085223
9999.767247085223
9999.775547085223
9999.775147085222
9999.779447085222
9999.768547085223
9999.749147085222
9999.748135067233
9999.748135067233
9999.748135067233
9999.748135067233
9999.748135067233
9999.748135067233
9999.748135067233
9999.748135067233
9999.748135067233
9999.748135067233
9999.748135067233
9999.748135067233
9999.748135067233
9999.748135067233
9999.748135067233
9999.748135067233
9999.748135067233
9999.748135067233
9999.748135067233
9999.748135067233
9999.748135067233
9999.748135067233
9999.748135067233
9999.748135067233
9999.748135067233
9999.748135067233
9999.748135067233
9999.748135067233
9999.748135067233
9999.748135067233
9999.748135067233
9999.748135067233
9999.747629685842
9999.736729685843
9999.750629685843
9999.750729685842
9999.730729685842
9999.718429685843
9999.717456054363
9999.717456054363
9999.717456054363
9999.717456054363
9999.704433181381
9999.704233181383
9999.703733181383
9999.697433181382
9999.677833181382
9999.676852950503
9999.676852950503
9999.676852950503
9999.676852950503
9999.676852950503
9999.676852950503
9999.676852950503
9999.676852950503
9999.676852950503
9999.676852950503
9999.676852950503
9999.676852950503
9999.676852950503
9999.676852950503
9999.676852950503
9999.676852950503
9999.676852950503
9999.676852950503
9999.676852950503
9999.676852950503
9999.676852950503
9999.676852950503
9999.676852950503
9999.676852950503
9999.676852950503
9999.676852950503
9999.676852950503
9999.676852950503
9999.676852950503
9999.676852950503
9999.676852950503
9999.676852950503
9999.676852950503
9999.676852950503
9999.676852950503
9999.676852950503
9999.676852950503
9999.676852950503
9999.676852950503
9999.676852950503
9999.676852950503
9999.676852950503
9999.676852950503
9999.676852950503
9999.676852950503
9999.676852950503
9999.676852950503
9999.676852950503
9999.676852950503
9999.676852950503
9999.676852950503
9999.676852950503
9999.676852950503
9999.676852950503
9999.676852950503
9999.676852950503
9999.676852950503
9999.676852950503
9999.676852950503
9999.676852950503
9999.676852950503
9999.676852950503
9999.676852950503
9999.676852950503
9999.677951968602
9999.675151968602
9999.681451968603
9999.679851968602
9999.675851968603
9999.657151968602
9999.656271828622
9999.656271828622
9999.656271828622
9999.656271828622
9999.656271828622
9999.656271828622
9999.645430583063
9999.644830583064
9999.644430583063
9999.633230583064
9999.631830583063
9999.625430583063
9999.619930583063
9999.622730583063
9999.621630583064
9999.637330583064
9999.641230583064
9999.633030583063
9999.628730583063
9999.629330583062
9999.635030583064
9999.642030583063
9999.654130583063
9999.647730583063
9999.643730583062
9999.642430583062
9999.642130583063
9999.646530583062
9999.659830583063
9999.648830583063
9999.623130583062
9999.622224925402
9999.622224925402
9999.622224925402
9999.622224925402
9999.622224925402
9999.622224925402
9999.622224925402
9999.622224925402
9999.622224925402
9999.622224925402
9999.622224925402
9999.616673338902
9999.615173338902
9999.613773338902
9999.615873338902
9999.595773338902
9999.593573338901
9999.590973338902
9999.590055252373
9999.590055252373
9999.590055252373
9999.590055252373
9999.590055252373
9999.590055252373
9999.590055252373
9999.590055252373
9999.590055252373
9999.623802345754
9999.613502345754
9999.599902345753
9999.604202345752
9999.604902345753
9999.622402345753
9999.615002345752
9999.610702345753
9999.606102345753
9999.607402345753
9999.588402345753
9999.587450382303
9999.587450382303
9999.587450382303
9999.587450382303
9999.587450382303
9999.587450382303
9999.587450382303
9999.587450382303
9999.587450382303
9999.587450382303
9999.587450382303
9999.587450382303
9999.587450382303
9999.587450382303
9999.587450382303
9999.587450382303
9999.587450382303
9999.587450382303
9999.587450382303
9999.587450382303
9999.587450382303
9999.587450382303
9999.587450382303
9999.589081634243
9999.587781634244
9999.579781634244
9999.574581634244
9999.563781634244
9999.562838030033
9999.562838030033
9999.562838030033
9999.562838030033
9999.562838030033
9999.562838030033
9999.562838030033
9999.562838030033
9999.562838030033
9999.562838030033
9999.562838030033
9999.562838030033
9999.562838030033
9999.562838030033
9999.562838030033
9999.562838030033
9999.562838030033
9999.562838030033
9999.562838030033
9999.562838030033
9999.562838030033
9999.562838030033
9999.562838030033
9999.562838030033
9999.537473022314
9999.536535027593
9999.536535027593
9999.536535027593
9999.536535027593
9999.536535027593
9999.536535027593
9999.536535027593
9999.536535027593
9999.536535027593
9999.536535027593
9999.536535027593
9999.536535027593
9999.536535027593
9999.536535027593
9999.536535027593
9999.536535027593
9999.536535027593
9999.536535027593
9999.536535027593
9999.536535027593
9999.536535027593
9999.536535027593
9999.536535027593
9999.536535027593
9999.536535027593
9999.536535027593
9999.536535027593
9999.536535027593
9999.536535027593
9999.536535027593
9999.536535027593
9999.536535027593
9999.536535027593
9999.536535027593
9999.536535027593
9999.536535027593
9999.536535027593
9999.536535027593
9999.536535027593
9999.536535027593
9999.536535027593
9999.530195432184
9999.521095432183
9999.520171956143
9999.520171956143
9999.520171956143
9999.520171956143
9999.520171956143
9999.520171956143
9999.520171956143
9999.520171956143
9999.517120369643
9999.527320369643
9999.531020369643
9999.552820369643
9999.544020369643
9999.546820369642
9999.545720369642
9999.531820369642
9999.555820369642
9999.549920369642
9999.537420369643
9999.538620369643
9999.538520369642
9999.536520369642
9999.536520369642
9999.540720369643
9999.550120369642
9999.580120369643
9999.574420369643
9999.590520369642
9999.591720369643
9999.590420369643
9999.584220369643
9999.589320369643
9999.585620369642
9999.588420369642
9999.588720369642
9999.589820369643
9999.599520369642
9999.619020369642
9999.618620369643
9999.602020369643
9999.607720369642
9999.606820369643
9999.622220369643
9999.636220369643
9999.627820369642
9999.615720369642
9999.614520369643
9999.604020369643
9999.592820369642
9999.591788003503
9999.591788003503
9999.591788003503
9999.591788003503
9999.591788003503
9999.591788003503
9999.591788003503
9999.591788003503
9999.591788003503
9999.591788003503
9999.591788003503
9999.591788003503
9999.591788003503
9999.591788003503
9999.591788003503
9999.591788003503
9999.591788003503
9999.591788003503
9999.591788003503
9999.591788003503
9999.591788003503
9999.591788003503
9999.591788003503
9999.591788003503
9999.591788003503
9999.591788003503
9999.591788003503
9999.591788003503
9999.591788003503
9999.591788003503
9999.591788003503
9999.591788003503
9999.591788003503
9999.591788003503
9999.591788003503
9999.591788003503
9999.591788003503
9999.591788003503
9999.591788003503
9999.591788003503
9999.591788003503
9999.591788003503
9999.591788003503
9999.591788003503
9999.591788003503
9999.591788003503
9999.591788003503
9999.591788003503
9999.591788003503
9999.591788003503
9999.591788003503
9999.591788003503
9999.591788003503
9999.591788003503
9999.591788003503
9999.586121895683
9999.582921895684
9999.582421895684
9999.586021895684
9999.580321895684
9999.558121895683
9999.557191930233
9999.557191930233
9999.557191930233
9999.557191930233
9999.557191930233
9999.557191930233
9999.557191930233
9999.557191930233
9999.557191930233
9999.557191930233
9999.557191930233
9999.557191930233
9999.557191930233
9999.557191930233
9999.557191930233
9999.557191930233
9999.557191930233
9999.557191930233
9999.557191930233
9999.557191930233
9999.557191930233
9999.557191930233
9999.557191930233
9999.557191930233
9999.557191930233
9999.557191930233
9999.557191930233
9999.557191930233
9999.557191930233
9999.557191930233
9999.557191930233
9999.557191930233
9999.557191930233
9999.557191930233
9999.557191930233
9999.557191930233
9999.557191930233
9999.557191930233
9999.557191930233
9999.557191930233
9999.557191930233
9999.557191930233
9999.557191930233
9999.557191930233
9999.557191930233
9999.557191930233
9999.557191930233
9999.557191930233
9999.557191930233
9999.557191930233
9999.557191930233
9999.557191930233
9999.557191930233
9999.557191930233
9999.557191930233
9999.557191930233
9999.557191930233
9999.557191930233
9999.557191930233
9999.557191930233
9999.557191930233
9999.557191930233
9999.557191930233
9999.557191930233
9999.557191930233
9999.557191930233
9999.557191930233
9999.557191930233
9999.557191930233
9999.557191930233
9999.557191930233
9999.557191930233
9999.557191930233
9999.557191930233
9999.557191930233
9999.557191930233
9999.557191930233
9999.557191930233
9999.557191930233
9999.557191930233
