equity
10000
10000
10000
10000
10000
10000
10000
10000
10000
10000
10000
10000
10000
10000
10000
10000
10000
10000
10000
10000
10000
10000
10000.378504715261
10000.09290471526
10000.320104715262
10000.475204715261
10000.74980471526
10000.76600471526
10000.76700471526
10000.711104715261
10000.896804715261
10001.24160471526
10000.753004715261
10001.487304715261
10001.188504715261
10001.07260471526
10000.718804715261
10000.166804715262
10000.131994200141
10000.131994200141
10000.131994200141
10000.131994200141
10000.131994200141
10000.131994200141
10000.131994200141
10000.131994200141
10000.131994200141
10000.131994200141
10000.131994200141
10000.131994200141
10000.131994200141
10000.131994200141
10000.131994200141
10000.131994200141
10000.131994200141
10000.131994200141
10000.131994200141
10000.131994200141
10000.131994200141
10000.131994200141
10000.131994200141
10000.131994200141
10000.131994200141
10000.131994200141
10000.131994200141
9999.92621343763
9999.72631343763
9999.87521343763
9999.79281343763
9999.529913437631
9999.495863063401
9999.495863063401
9999.495863063401
9999.495863063401
9999.773829828851
10000.868229828851
10001.134129828852
10000.973129828852
10000.476229828852
10001.071829828852
10001.286229828851
10001.159629828851
10000.481729828853
10000.919929828851
10001.115329828852
10000.925429828852
10000.574229828851
10000.803629828852
10000.569329828852
10000.713129828851
10000.632329828852
10000.261429828852
10000.225522383462
10000.225522383462
10000.225522383462
10000.225522383462
10000.225522383462
10000.225522383462
10000.225522383462
10000.225522383462
10000.225522383462
10000.225522383462
10000.225522383462
10000.225522383462
10000.225522383462
10000.225522383462
10000.225522383462
10000.225522383462
10000.225522383462
10000.225522383462
10000.225522383462
10000.225522383462
10000.225522383462
10000.225522383462
10000.225522383462
10000.225522383462
10000.225522383462
10000.225522383462
10000.225522383462
10000.225522383462
10000.225522383462
10000.225522383462
10000.225522383462
10000.225522383462
10000.225522383462
10000.225522383462
10000.225522383462
10000.225522383462
10000.225522383462
10000.225522383462
10000.225522383462
10000.225522383462
10000.225522383462
10000.225522383462
10000.225522383462
10000.225522383462
10000.225522383462
10000.225522383462
10000.225522383462
10000.225522383462
10000.225522383462
10000.225522383462
10000.225522383462
10000.225522383462
10000.225522383462
10000.225522383462
10000.225522383462
10000.225522383462
10000.225522383462
10000.225522383462
10000.225522383462
10000.225522383462
10000.225522383462
10000.225522383462
10000.225522383462
10000.225522383462
10000.225522383462
10000.225522383462
10000.225522383462
10000.647132472832
10000.43713247283
10000.43743247283
10000.786132472831
10000.46443247283
10000.547932472831
10000.493132472831
9999.915632472832
10000.00353247283
9999.67873247283
9999.646513872061
9999.646513872061
9999.646513872061
9999.646513872061
9999.646513872061
9999.646513872061
9999.646513872061
9999.646513872061
9999.646513872061
9999.646513872061
9999.646513872061
9999.646513872061
9999.646513872061
9999.646513872061
9999.646513872061
9999.646513872061
9999.646513872061
9999.646513872061
9999.646513872061
9999.646513872061
9999.646513872061
9999.646513872061
9999.646513872061
9999.646513872061
9999.646513872061
9999.646513872061
9999.646513872061
9999.646513872061
9999.646513872061
9999.646513872061
9999.646513872061
9999.646513872061
9999.646513872061
9999.646513872061
9999.646513872061
9999.646513872061
9999.646513872061
9999.646513872061
9999.646513872061
9999.646513872061
9999.646513872061
9999.646513872061
9999.646513872061
9999.646513872061
9999.646513872061
9999.646513872061
9999.646513872061
9999.646513872061
9999.646513872061
9999.646513872061
9999.646513872061
9999.646513872061
9999.646513872061
9999.646513872061
9999.646513872061
9999.646513872061
9999.646513872061
9999.646513872061
9999.646513872061
9999.646513872061
9999.646513872061
9999.646513872061
9999.646513872061
9999.646513872061
9999.646513872061
9999.646513872061
9999.646513872061
9999.646513872061
9999.646513872061
9999.646513872061
9999.646513872061
9999.646513872061
9999.646513872061
9999.646513872061
9999.646513872061
9999.646513872061
9999.646513872061
9999.646513872061
9999.646513872061
9999.646513872061
9999.646513872061
9999.646513872061
9999.646513872061
9999.646513872061
9999.646513872061
9999.646513872061
9999.646513872061
9999.646513872061
9999.646513872061
9999.646513872061
9999.646513872061
9999.646513872061
9999.534978434482
9999.591478434482
9999.616178434482
10000.043478434482
9999.92217843448
9999.930778434482
9999.916978434481
9999.640678434482
9999.964778434482
9999.668878434482
9999.165578434482
9999.143451196232
9999.143451196232
9999.143451196232
9999.143451196232
9999.143451196232
9999.143451196232
9999.143451196232
9999.143451196232
9999.143451196232
9999.143451196232
9999.143451196232
9999.143451196232
9999.143451196232
9999.143451196232
9999.143451196232
9999.143451196232
9999.143451196232
9999.143451196232
9999.143451196232
9999.143451196232
9999.143451196232
9999.143451196232
9999.143451196232
9999.143451196232
9999.143451196232
9999.143451196232
9999.143451196232
9999.143451196232
9999.143451196232
9999.143451196232
9999.143451196232
9999.143451196232
9999.143451196232
9999.143451196232
9999.143451196232
9999.143451196232
9999.143451196232
9999.143451196232
9999.143451196232
9999.143451196232
9999.143451196232
9999.143451196232
9999.143451196232
9999.143451196232
9999.143451196232
9999.143451196232
9999.143451196232
9999.143451196232
9999.143451196232
9999.143451196232
9999.143451196232
9999.143451196232
9999.143451196232
9999.143451196232
9999.143451196232
9999.143451196232
9999.143451196232
9999.143451196232
9999.143451196232
9999.143451196232
9999.694999142594
9999.559699142594
9999.526899142593
9999.515499142593
9999.554499142594
9999.317999142593
9999.283699142594
9999.259999142594
9999.434299142593
9999.309699142594
9998.610599142594
9998.470099142593
9998.448667371113
9998.448667371113
9998.448667371113
9998.448667371113
9998.448667371113
9998.448667371113
9998.448667371113
9998.448667371113
9998.448667371113
9998.448667371113
9998.448667371113
9998.448667371113
9998.448667371113
9998.448667371113
9998.448667371113
9998.448667371113
9998.448667371113
9998.448667371113
9998.389443923712
9998.223543923712
9998.040643923712
9997.917843923713
9997.562943923713
9997.541374004792
9997.541374004792
9997.541374004792
9997.541374004792
9997.541374004792
9997.541374004792
9997.541374004792
9997.79162031465
9997.28542031465
9997.21732031465
9997.06602031465
9997.398020314651
9996.88652031465
9996.762120314652
9996.747720314652
9996.858320314652
9996.847620314651
9996.528320314652
9996.505759165851
9996.505759165851
9996.505759165851
9996.505759165851
9996.505759165851
9996.505759165851
9996.505759165851
9996.505759165851
9996.505759165851
9996.505759165851
9996.505759165851
9996.505759165851
9996.505759165851
9996.505759165851
9996.505759165851
9996.505759165851
9996.505759165851
9996.505759165851
9996.505759165851
9996.505759165851
9996.505759165851
9996.505759165851
9996.505759165851
9996.592498095031
9996.76799809503
9996.34599809503
9996.343798095031
9996.18799809503
9996.10109809503
9996.15479809503
9996.469998095032
9996.73409809503
9996.495198095032
9996.20759809503
9996.38219809503
9996.60189809503
9996.70089809503
9996.66899809503
9996.706998095031
9997.16079809503
9996.971298095032
9997.18319809503
9997.255998095032
9996.99919809503
9996.90409809503
9996.989398095031
9996.75049809503
9996.71349809503
9996.721298095032
9996.750198095031
9996.939898095032
9996.93979809503
9997.03549809503
9997.17229809503
9996.91079809503
9997.108898095032
9997.75619809503
9998.328398095031
9998.46499809503
9998.670398095031
9998.709998095032
9999.279498095031
9999.50649809503
9999.17779809503
9999.251498095031
9999.244798095031
9999.13499809503
9999.17599809503
9999.14689809503
9999.37969809503
9999.150098095031
9998.66799809503
9997.848598095032
9997.824539322392
9997.824539322392
9997.824539322392
9997.824539322392
9997.824539322392
9997.824539322392
9997.824539322392
9997.824539322392
9997.824539322392
9997.824539322392
9997.824539322392
9997.824539322392
9997.824539322392
9997.824539322392
9997.824539322392
9997.824539322392
9997.824539322392
9997.824539322392
9997.824539322392
9997.824539322392
9997.824539322392
9997.824539322392
9997.824539322392
9997.824539322392
9997.824539322392
9997.824539322392
9997.824539322392
9997.824539322392
9997.824539322392
9997.824539322392
9997.824539322392
9997.824539322392
9997.824539322392
9997.824539322392
9997.824539322392
9997.824539322392
9997.824539322392
9997.824539322392
9997.824539322392
9997.824539322392
9997.824539322392
9997.824539322392
9997.824539322392
9997.824539322392
9997.824539322392
9997.824539322392
9997.824539322392
9997.824539322392
9997.824539322392
9997.824539322392
9997.824539322392
9997.824539322392
9997.824539322392
9997.824539322392
9997.824539322392
9997.824539322392
9997.824539322392
9997.824539322392
9997.824539322392
9997.824539322392
9997.824539322392
9997.824539322392
9997.824539322392
9997.824539322392
9997.824539322392
9997.824539322392
9997.824539322392
9997.824539322392
9997.824539322392
9997.824539322392
9997.918882762891
9997.951982762892
9997.444282762892
9997.475182762892
9997.876282762893
9997.766682762893
9997.620882762893
9997.753182762892
9998.171682762892
9998.262882762892
9998.234882762892
9998.516482762892
9998.560682762893
9998.554882762892
9998.617182762891
9998.607682762891
9997.765882762891
9997.743269918792
9997.743269918792
9997.743269918792
9997.743269918792
9997.743269918792
9997.743269918792
9997.743269918792
9997.743269918792
9997.743269918792
9997.743269918792
9997.743269918792
9997.743269918792
9997.743269918792
9997.743269918792
9997.743269918792
9997.743269918792
9997.743269918792
9997.743269918792
9997.743269918792
9997.743269918792
9997.743269918792
9997.743269918792
9997.743269918792
9997.910952858343
9997.965752858343
9998.131452858343
9998.260952858342
9998.056452858342
9997.688652858342
9997.699852858343
9997.656652858343
9997.510252858343
9997.419552858342
9997.396670538743
9997.396670538743
9997.314326098543
9997.503526098542
9997.439126098543
9997.123226098543
9997.080026098543
9996.869126098543
9996.796326098543
9996.782126098542
9996.774026098543
9997.152826098543
9997.135326098543
9996.871626098542
9996.834626098544
9996.767926098542
9997.126526098542
9997.212726098543
9997.496726098543
9997.420226098542
9997.340926098543
9997.297626098543
9997.426926098542
9997.463326098543
9998.130726098543
9997.819226098543
9997.108926098543
9997.084575522433
9997.084575522433
9997.084575522433
9997.084575522433
9997.084575522433
9997.084575522433
9997.084575522433
9997.084575522433
9997.084575522433
9997.084575522433
9997.084575522433
9997.031625484462
9997.159225484462
9997.119725484463
9997.020825484462
9996.511025484462
9996.600725484463
9996.667825484463
9996.545925484463
9996.752825484462
9996.700625484462
9997.130025484463
9996.980225484462
9996.954725484462
9996.792925484462
9996.734725484463
9996.768325484461
9996.973925484463
9996.859525484462
9996.634325484461
9996.608746760012
9996.608746760012
9996.608746760012
9996.44088561831
9996.34988561831
9996.216485618312
9996.199285618311
9995.693585618312
9995.66770640118
9995.66770640118
9995.66770640118
9995.66770640118
9995.66770640118
9995.66770640118
9995.66770640118
9995.66770640118
9995.66770640118
9995.66770640118
9995.66770640118
9995.66770640118
9995.66770640118
9995.66770640118
9995.66770640118
9995.66770640118
9995.66770640118
9995.66770640118
9995.66770640118
9995.66770640118
9995.66770640118
9995.66770640118
9995.66770640118
9995.73172061178
9995.78242061178
9995.72242061178
9995.48722061178
9995.15772061178
9995.19162061178
9995.03672061178
9995.011104710711
9995.011104710711
9995.011104710711
9995.011104710711
9995.011104710711
9995.011104710711
9995.011104710711
9995.011104710711
9995.011104710711
9995.011104710711
9995.011104710711
9995.011104710711
9995.011104710711
9995.011104710711
9995.011104710711
9995.011104710711
9995.011104710711
9995.011104710711
9995.011104710711
9995.011104710711
9995.006860283253
9995.256360283252
9994.472460283252
9994.446984399452
9994.446984399452
9994.446984399452
9994.446984399452
9994.446984399452
9994.446984399452
9994.446984399452
9994.446984399452
9994.446984399452
9994.446984399452
9994.446984399452
9994.446984399452
9994.446984399452
9994.446984399452
9994.446984399452
9994.446984399452
9994.446984399452
9994.446984399452
9994.446984399452
9994.446984399452
9994.446984399452
9994.446984399452
9994.446984399452
9994.446984399452
9994.446984399452
9994.446984399452
9994.446984399452
9994.446984399452
9994.446984399452
9994.446984399452
9994.446984399452
9994.446984399452
9994.446984399452
9994.446984399452
9994.446984399452
9994.446984399452
9994.446984399452
9994.446984399452
9994.494470111093
9994.365570111093
9994.987170111091
9994.765570111093
9994.511670111093
9994.635170111093
9994.700170111093
9994.609970111092
9994.960670111092
9994.938870111093
9994.932970111093
9994.947970111092
9994.856070111093
9994.745370111092
9994.905670111093
9994.853370111092
9995.241970111092
9994.729770111093
9994.624770111091
9994.598936759792
9994.598936759792
9994.598936759792
9994.598936759792
9994.598936759792
9994.598936759792
9994.598936759792
9994.598936759792
9994.598936759792
9994.598936759792
9994.598936759792
9994.598936759792
9994.598936759792
9994.598936759792
9994.598936759792
9994.598936759792
9994.598936759792
9994.598936759792
9994.598936759792
9994.598936759792
9994.598936759792
9994.598936759792
9994.598936759792
9994.751509932112
9994.806409932113
9994.401209932112
9994.402909932112
9994.454109932112
9994.431409932113
9994.500409932112
9994.494509932112
9994.192609932112
9994.167206311742
9994.167206311742
9994.167206311742
9994.167206311742
9994.167206311742
9994.167206311742
9994.167206311742
9994.167206311742
9994.167206311742
9994.167206311742
9994.167206311742
9994.167206311742
9994.167206311742
9994.167206311742
9994.167206311742
9994.167206311742
9994.167206311742
9994.167206311742
9994.167206311742
9994.167206311742
9994.167206311742
9994.167206311742
9994.167206311742
9994.167206311742
9994.167206311742
9994.167206311742
9994.167206311742
9994.167206311742
9994.167206311742
9994.167206311742
9994.167206311742
9994.167206311742
9994.167206311742
9994.167206311742
9994.167206311742
9994.167206311742
9994.167206311742
9994.167206311742
9994.167206311742
9994.167206311742
9994.167206311742
9994.167206311742
9994.167206311742
9994.167206311742
9994.167206311742
9994.167206311742
9994.167206311742
9994.167206311742
9994.167206311742
9994.167206311742
9994.167206311742
9994.167206311742
9994.167206311742
9994.167206311742
9994.167206311742
9994.167206311742
9994.167206311742
9994.167206311742
9994.167206311742
9994.167206311742
9994.167206311742
9994.167206311742
9994.167206311742
9994.167206311742
9994.167206311742
9994.167206311742
9994.167206311742
9994.167206311742
9994.167206311742
9994.167206311742
9994.167206311742
9994.167206311742
9994.167206311742
9994.167206311742
9994.167206311742
9994.167206311742
9994.167206311742
9994.167206311742
9994.167206311742
9994.167206311742
9994.167206311742
9994.167206311742
9994.167206311742
9994.167206311742
9994.167206311742
9994.167206311742
9994.167206311742
9994.167206311742
9994.167206311742
9994.167206311742
9994.167206311742
9994.167206311742
9994.167206311742
9994.167206311742
9994.167206311742
9994.167206311742
9994.167206311742
9994.167206311742
9994.167206311742
9994.167206311742
9994.167206311742
9994.167206311742
9994.167206311742
9994.167206311742
9994.167206311742
9994.167206311742
9994.167206311742
9994.167206311742
9994.167206311742
9994.167206311742
9994.167206311742
9994.167206311742
9994.167206311742
9994.167206311742
9994.167206311742
9994.167206311742
9994.167206311742
9994.167206311742
9994.167206311742
9994.167206311742
9994.167206311742
9994.167206311742
9994.167206311742
9994.167206311742
9994.167206311742
9994.167206311742
9994.167206311742
9994.167206311742
9994.167206311742
9994.167206311742
9994.167206311742
9994.167206311742
9994.167206311742
9994.167206311742
9994.167206311742
9994.167206311742
9994.167206311742
9994.167206311742
9994.167206311742
9994.167206311742
9994.167206311742
9994.167206311742
9994.167206311742
9994.167206311742
